T,Distance,Radius,FreeRadius,BRadius,X,Y,Z,,,Weighted Radius,Weighted FreeRadius,Weighted Bradius
0,0,1.136,1.346,3.059,83.95,39.765,64.009,,,0.064752,0.076722,0.174363
0.004,0.057,1.14,1.308,3.062,83.946,39.719,63.975,,,0.06042,0.069324,0.162286
0.008,0.11,1.144,1.272,3.066,83.943,39.677,63.944,,,0.049192,0.054696,0.131838
0.013,0.153,1.147,1.243,3.069,83.94,39.642,63.919,,,0.033263,0.036047,0.089001
0.017,0.182,1.151,1.223,3.073,83.938,39.619,63.902,,,0.010359,0.011007,0.027657
0.021,0.191,1.152,1.216,3.074,83.938,39.611,63.896,,,0.01728,0.01824,0.04611
0.025,0.206,1.15,1.226,3.072,83.939,39.623,63.904,,,0.0483,0.051492,0.129024
0.029,0.248,1.146,1.256,3.068,83.942,39.657,63.929,,,0.087096,0.095456,0.233168
0.033,0.324,1.139,1.307,3.062,83.947,39.718,63.974,,,0.129846,0.148998,0.349068
0.038,0.438,1.133,1.377,3.056,83.955,39.81,64.041,,,0.172216,0.209304,0.464512
0.042,0.59,1.132,1.459,3.056,83.965,39.932,64.13,,,0.206024,0.265538,0.556192
0.046,0.772,1.141,1.55,3.065,83.975,40.078,64.239,,,0.235046,0.3193,0.63139
0.05,0.978,1.164,1.649,3.088,83.985,40.242,64.363,,,0.259572,0.367727,0.688624
0.054,1.201,1.204,1.757,3.129,83.991,40.418,64.5,,,0.279328,0.407624,0.725928
0.058,1.433,1.262,1.88,3.188,83.994,40.599,64.646,,,0.297832,0.44368,0.752368
0.063,1.669,1.336,2.024,3.263,83.99,40.78,64.797,,,0.311288,0.471592,0.760279
0.067,1.902,1.423,2.185,3.35,83.978,40.954,64.95,,,0.317329,0.487255,0.74705
0.071,2.125,1.517,2.346,3.444,83.958,41.116,65.103,,,0.315536,0.487968,0.716352
0.075,2.333,1.613,2.494,3.539,83.927,41.26,65.25,,,0.312922,0.483836,0.686566
0.079,2.527,1.708,2.622,3.634,83.886,41.384,65.393,,,0.30744,0.47196,0.65412
0.083,2.707,1.799,2.73,3.726,83.836,41.491,65.529,,,0.302232,0.45864,0.625968
0.088,2.875,1.886,2.812,3.813,83.779,41.582,65.659,,,0.297988,0.444296,0.602454
0.092,3.033,1.968,2.862,3.894,83.717,41.658,65.782,,,0.289296,0.420714,0.572418
0.096,3.18,2.045,2.878,3.969,83.649,41.719,65.898,,,0.28221,0.397164,0.547722
0.1,3.318,2.116,2.875,4.038,83.578,41.767,66.006,,,0.272964,0.370875,0.520902
0.104,3.447,2.181,2.868,4.103,83.505,41.804,66.105,,,0.26172,0.34416,0.49236
0.108,3.567,2.24,2.858,4.162,83.431,41.83,66.196,,,0.24864,0.317238,0.461982
0.113,3.678,2.293,2.844,4.215,83.357,41.847,66.278,,,0.236179,0.292932,0.434145
0.117,3.781,2.339,2.824,4.26,83.286,41.855,66.351,,,0.219866,0.265456,0.40044
0.121,3.875,2.379,2.8,4.298,83.218,41.857,66.416,,,0.202215,0.238,0.36533
0.125,3.96,2.413,2.775,4.328,83.154,41.852,66.472,,,0.178562,0.20535,0.320272
0.129,4.034,2.44,2.748,4.351,83.097,41.844,66.519,,,0.1586,0.17862,0.282815
0.133,4.099,2.461,2.722,4.37,83.047,41.831,66.558,,,0.130433,0.144266,0.23161
0.138,4.152,2.474,2.698,4.384,83.007,41.817,66.589,,,0.101434,0.110618,0.179744
0.142,4.193,2.481,2.677,4.391,82.976,41.801,66.612,,,0.071949,0.077633,0.127339
0.146,4.222,2.481,2.66,4.39,82.958,41.786,66.628,,,0.044658,0.04788,0.07902
0.15,4.24,2.475,2.648,4.385,82.949,41.771,66.636,,,0.032175,0.034424,0.057005
0.154,4.253,2.466,2.639,4.375,82.948,41.759,66.639,,,0.02466,0.02639,0.04375
0.158,4.263,2.456,2.634,4.365,82.951,41.749,66.638,,,0.022104,0.023706,0.039285
0.163,4.272,2.448,2.631,4.358,82.956,41.744,66.635,,,0.014688,0.015786,0.026148
0.167,4.278,2.445,2.631,4.354,82.96,41.742,66.631,,,0.012225,0.013155,0.02177
0.171,4.283,2.447,2.633,4.357,82.96,41.746,66.627,,,0.031811,0.034229,0.056641
0.175,4.296,2.457,2.635,4.367,82.954,41.756,66.625,,,0.058968,0.06324,0.104808
0.179,4.32,2.479,2.639,4.39,82.937,41.774,66.626,,,0.094202,0.100282,0.16682
0.183,4.358,2.523,2.642,4.432,82.909,41.798,66.631,,,0.128673,0.134742,0.226032
0.188,4.409,2.58,2.646,4.487,82.869,41.83,66.639,,,0.16512,0.169344,0.287168
0.192,4.473,2.625,2.65,4.529,82.819,41.868,66.649,,,0.1995,0.2014,0.344204
0.196,4.549,2.636,2.654,4.54,82.758,41.912,66.66,,,0.226696,0.228244,0.39044
0.2,4.635,2.629,2.658,4.533,82.687,41.961,66.671,,,0.255013,0.257826,0.439701
0.204,4.732,2.629,2.662,4.532,82.607,42.014,66.682,,,0.276045,0.27951,0.47586
0.208,4.837,2.644,2.666,4.544,82.519,42.07,66.689,,,0.301416,0.303924,0.518016
0.213,4.951,2.66,2.671,4.558,82.422,42.13,66.694,,,0.32186,0.323191,0.551518
0.217,5.072,2.67,2.675,4.567,82.318,42.192,66.694,,,0.33642,0.33705,0.575442
0.221,5.198,2.674,2.679,4.571,82.209,42.254,66.689,,,0.336924,0.337554,0.575946
0.225,5.324,2.674,2.682,4.573,82.098,42.314,66.68,,,0.326228,0.327204,0.557906
0.229,5.446,2.672,2.684,4.571,81.99,42.368,66.668,,,0.299264,0.300608,0.511952
0.233,5.558,2.668,2.683,4.565,81.888,42.413,66.652,,,0.2668,0.2683,0.4565
0.238,5.658,2.661,2.677,4.553,81.796,42.447,66.632,,,0.220863,0.222191,0.377899
0.242,5.741,2.648,2.662,4.534,81.719,42.466,66.611,,,0.169472,0.170368,0.290176
0.246,5.805,2.627,2.635,4.51,81.659,42.467,66.587,,,0.13135,0.13175,0.2255
0.25,5.855,2.596,2.598,4.479,81.62,42.448,66.561,,,0.132396,0.132498,0.228429
0.254,5.906,2.553,2.553,4.441,81.606,42.407,66.534,,,0.145521,0.145521,0.253137
0.258,5.963,2.503,2.505,4.397,81.61,42.358,66.506,,,0.137665,0.137775,0.241835
0.263,6.018,2.455,2.455,4.354,81.628,42.315,66.477,,,0.10802,0.10802,0.191576
0.267,6.062,2.42,2.414,4.32,81.653,42.292,66.449,,,0.0968,0.09656,0.1728
0.271,6.102,2.409,2.423,4.308,81.679,42.303,66.421,,,0.16863,0.16961,0.30156
0.275,6.172,2.433,2.532,4.332,81.7,42.365,66.394,,,0.313857,0.326628,0.558828
0.279,6.301,2.469,2.687,4.368,81.71,42.49,66.369,,,0.508614,0.553522,0.899808
0.283,6.507,2.461,2.753,4.362,81.702,42.695,66.346,,,0.7383,0.8259,1.3086
0.288,6.807,2.375,2.648,4.277,81.671,42.992,66.325,,,0.928625,1.035368,1.672307
0.292,7.198,2.234,2.453,4.135,81.616,43.38,66.307,,,1.02764,1.12838,1.9021
0.296,7.658,2.072,2.274,3.969,81.541,43.833,66.292,,,1.038072,1.139274,1.988469
0.3,8.159,1.931,2.156,3.823,81.452,44.326,66.281,,,1.000258,1.116808,1.980314
0.304,8.677,1.862,2.104,3.746,81.354,44.835,66.274,,,0.947758,1.070936,1.906714
0.308,9.186,1.886,2.12,3.762,81.251,45.333,66.271,,,0.892078,1.00276,1.779426
0.313,9.659,1.973,2.191,3.847,81.15,45.795,66.272,,,0.812876,0.902692,1.584964
0.317,10.071,2.089,2.3,3.965,81.056,46.196,66.279,,,0.681014,0.7498,1.29259
0.321,10.397,2.178,2.398,4.06,80.973,46.511,66.29,,,0.476982,0.525162,0.88914
0.325,10.616,2.18,2.427,4.064,80.906,46.719,66.307,,,0.26814,0.298521,0.499872
0.329,10.739,2.102,2.382,3.981,80.858,46.83,66.327,,,0.1051,0.1191,0.19905
0.333,10.789,2.029,2.326,3.901,80.831,46.867,66.347,,,0.046667,0.053498,0.089723
0.338,10.812,2.027,2.31,3.897,80.825,46.851,66.364,,,0.103377,0.11781,0.198747
0.342,10.863,2.081,2.329,3.952,80.844,46.806,66.375,,,0.14567,0.16303,0.27664
0.346,10.933,2.154,2.363,4.03,80.888,46.751,66.376,,,0.176628,0.193766,0.33046
0.35,11.015,2.217,2.396,4.098,80.958,46.711,66.366,,,0.226134,0.244392,0.417996
0.354,11.117,2.245,2.416,4.129,81.058,46.707,66.341,,,0.330015,0.355152,0.606963
0.358,11.264,2.225,2.415,4.113,81.187,46.761,66.297,,,0.465025,0.504735,0.859617
0.363,11.473,2.183,2.4,4.071,81.346,46.882,66.234,,,0.571946,0.6288,1.066602
0.367,11.735,2.144,2.379,4.031,81.524,47.057,66.157,,,0.647488,0.718458,1.217362
0.371,12.037,2.125,2.363,4.011,81.716,47.273,66.069,,,0.69275,0.770338,1.307586
0.375,12.363,2.137,2.368,4.023,81.912,47.515,65.974,,,0.707347,0.783808,1.331613
0.379,12.694,2.186,2.401,4.073,82.104,47.767,65.877,,,0.703892,0.773122,1.311506
0.383,13.016,2.265,2.458,4.156,82.285,48.015,65.781,,,0.66591,0.722652,1.221864
0.388,13.31,2.367,2.533,4.262,82.445,48.245,65.691,,,0.589383,0.630717,1.061238
0.392,13.559,2.459,2.614,4.358,82.577,48.441,65.611,,,0.46721,0.49666,0.82802
0.396,13.749,2.502,2.689,4.403,82.673,48.591,65.545,,,0.327762,0.352259,0.576793
0.4,13.88,2.493,2.75,4.396,82.735,48.693,65.493,,,0.204426,0.2255,0.360472
0.404,13.962,2.472,2.796,4.375,82.769,48.755,65.452,,,0.11124,0.12582,0.196875
0.408,14.007,2.467,2.829,4.371,82.782,48.785,65.42,,,0.064142,0.073554,0.113646
0.413,14.033,2.478,2.852,4.381,82.779,48.79,65.395,,,0.064428,0.074152,0.113906
0.417,14.059,2.494,2.868,4.397,82.767,48.777,65.375,,,0.082302,0.094644,0.145101
0.421,14.092,2.506,2.881,4.409,82.753,48.753,65.357,,,0.085204,0.097954,0.149906
0.425,14.126,2.504,2.896,4.408,82.742,48.726,65.34,,,0.077624,0.089776,0.136648
0.429,14.157,2.488,2.916,4.392,82.742,48.703,65.32,,,0.07464,0.08748,0.13176
0.433,14.187,2.471,2.943,4.374,82.754,48.691,65.296,,,0.088956,0.105948,0.157464
0.438,14.223,2.465,2.977,4.368,82.774,48.694,65.266,,,0.120785,0.145873,0.214032
0.442,14.272,2.468,3.006,4.372,82.795,48.717,65.228,,,0.170292,0.207414,0.301668
0.446,14.341,2.469,3.012,4.372,82.809,48.766,65.181,,,0.239493,0.292164,0.424084
0.45,14.438,2.459,2.994,4.362,82.81,48.844,65.124,,,0.329506,0.401196,0.584508
0.454,14.572,2.435,2.971,4.339,82.79,48.957,65.053,,,0.4383,0.53478,0.78102
0.458,14.752,2.392,2.965,4.296,82.743,49.108,64.969,,,0.56212,0.696775,1.00956
0.463,14.987,2.319,3.009,4.223,82.661,49.304,64.868,,,0.688743,0.893673,1.254231
0.467,15.284,2.202,3.134,4.103,82.538,49.548,64.751,,,0.779508,1.109436,1.452462
0.471,15.638,2.056,3.309,3.952,82.377,49.834,64.618,,,0.814176,1.310364,1.564992
0.475,16.034,1.927,3.439,3.818,82.188,50.151,64.475,,,0.807413,1.440941,1.599742
0.479,16.453,1.851,3.456,3.737,81.982,50.484,64.326,,,0.788526,1.472256,1.591962
0.483,16.879,1.835,3.4,3.717,81.769,50.821,64.178,,,0.75969,1.4076,1.538838
0.488,17.293,1.874,3.331,3.755,81.559,51.149,64.035,,,0.725238,1.289097,1.453185
0.492,17.68,1.952,3.277,3.834,81.363,51.455,63.902,,,0.665632,1.117457,1.307394
0.496,18.021,2.042,3.247,3.924,81.191,51.725,63.784,,,0.567676,0.902666,1.090872
0.5,18.299,2.12,3.244,4.002,81.055,51.947,63.687,,,0.43036,0.658532,0.812406
0.504,18.502,2.172,3.252,4.054,80.96,52.111,63.613,,,0.295392,0.442272,0.551344
0.508,18.638,2.19,3.259,4.072,80.904,52.223,63.562,,,0.17958,0.267238,0.333904
0.513,18.72,2.188,3.261,4.07,80.879,52.295,63.531,,,0.094084,0.140223,0.17501
0.517,18.763,2.191,3.261,4.072,80.877,52.335,63.516,,,0.054775,0.081525,0.1018
0.521,18.788,2.21,3.261,4.091,80.892,52.355,63.515,,,0.05967,0.088047,0.110457
0.525,18.815,2.24,3.264,4.122,80.916,52.365,63.524,,,0.07168,0.104448,0.131904
0.529,18.847,2.273,3.274,4.159,80.942,52.374,63.542,,,0.081828,0.117864,0.149724
0.533,18.883,2.298,3.293,4.19,80.962,52.392,63.564,,,0.105708,0.151478,0.19274
0.538,18.929,2.307,3.324,4.203,80.969,52.431,63.588,,,0.154569,0.222708,0.281601
0.542,18.996,2.302,3.367,4.199,80.962,52.493,63.611,,,0.193368,0.282828,0.352716
0.546,19.08,2.299,3.422,4.192,80.942,52.573,63.633,,,0.225302,0.335356,0.410816
0.55,19.178,2.309,3.481,4.196,80.913,52.664,63.651,,,0.242445,0.365505,0.44058
0.554,19.283,2.332,3.516,4.216,80.878,52.762,63.664,,,0.247192,0.372696,0.446896
0.558,19.389,2.364,3.499,4.254,80.841,52.861,63.67,,,0.2364,0.3499,0.4254
0.563,19.489,2.395,3.443,4.298,80.804,52.954,63.669,,,0.21555,0.30987,0.38682
0.567,19.579,2.413,3.391,4.323,80.771,53.037,63.657,,,0.178562,0.250934,0.319902
0.571,19.653,2.413,3.37,4.319,80.744,53.102,63.634,,,0.142367,0.19883,0.254821
0.575,19.712,2.401,3.38,4.299,80.727,53.147,63.599,,,0.127253,0.17914,0.227847
0.579,19.765,2.384,3.413,4.281,80.719,53.171,63.553,,,0.13112,0.187715,0.235455
0.583,19.82,2.372,3.453,4.272,80.718,53.179,63.498,,,0.144692,0.210633,0.260592
0.588,19.881,2.372,3.479,4.275,80.723,53.174,63.438,,,0.156552,0.229614,0.28215
0.592,19.947,2.386,3.48,4.289,80.731,53.16,63.374,,,0.162248,0.23664,0.291652
0.596,20.015,2.411,3.452,4.313,80.74,53.141,63.309,,,0.161537,0.231284,0.288971
0.6,20.082,2.439,3.397,4.339,80.748,53.121,63.246,,,0.151218,0.210614,0.269018
0.604,20.144,2.461,3.333,4.359,80.755,53.103,63.186,,,0.135355,0.183315,0.239745
0.608,20.199,2.465,3.279,4.363,80.757,53.091,63.133,,,0.110925,0.147555,0.196335
0.613,20.244,2.454,3.242,4.352,80.755,53.086,63.088,,,0.095706,0.126438,0.169728
0.617,20.283,2.439,3.216,4.337,80.75,53.088,63.05,,,0.080487,0.106128,0.143121
0.621,20.316,2.431,3.196,4.329,80.744,53.094,63.017,,,0.070499,0.092684,0.125541
0.625,20.345,2.429,3.179,4.327,80.741,53.102,62.99,,,0.060725,0.079475,0.108175
0.629,20.37,2.432,3.165,4.33,80.741,53.112,62.967,,,0.055936,0.072795,0.09959
0.633,20.393,2.439,3.151,4.337,80.747,53.12,62.946,,,0.058536,0.075624,0.104088
0.638,20.417,2.447,3.133,4.345,80.762,53.125,62.928,,,0.075857,0.097123,0.134695
0.642,20.448,2.451,3.109,4.349,80.788,53.125,62.911,,,0.102942,0.130578,0.182658
0.646,20.49,2.44,3.079,4.338,80.825,53.119,62.894,,,0.122,0.15395,0.2169
0.65,20.54,2.405,3.043,4.302,80.871,53.108,62.876,,,0.122655,0.155193,0.219402
0.654,20.591,2.354,3.005,4.252,80.916,53.095,62.856,,,0.103576,0.13222,0.187088
0.658,20.635,2.303,2.97,4.202,80.953,53.085,62.835,,,0.073696,0.09504,0.134464
0.663,20.667,2.268,2.942,4.173,80.975,53.081,62.811,,,0.063504,0.082376,0.116844
0.667,20.695,2.275,2.923,4.185,80.973,53.085,62.784,,,0.111475,0.143227,0.205065
0.671,20.744,2.331,2.915,4.243,80.939,53.102,62.753,,,0.202797,0.253605,0.369141
0.675,20.831,2.389,2.932,4.3,80.867,53.135,62.717,,,0.327293,0.401684,0.5891
0.679,20.968,2.391,2.986,4.298,80.746,53.187,62.677,,,0.456681,0.570326,0.820918
0.683,21.159,2.327,3.061,4.23,80.576,53.26,62.631,,,0.544518,0.716274,0.98982
0.688,21.393,2.232,3.122,4.132,80.366,53.349,62.581,,,0.589248,0.824208,1.090848
0.692,21.657,2.133,3.144,4.032,80.128,53.45,62.53,,,0.59724,0.88032,1.12896
0.696,21.937,2.045,3.146,3.945,79.874,53.557,62.48,,,0.578735,0.890318,1.116435
0.7,22.22,1.983,3.15,3.883,79.616,53.665,62.433,,,0.543342,0.8631,1.063942
0.704,22.494,1.946,3.161,3.847,79.367,53.769,62.39,,,0.484554,0.787089,0.957903
0.708,22.743,1.931,3.175,3.831,79.139,53.864,62.353,,,0.411303,0.676275,0.816003
0.713,22.956,1.931,3.191,3.831,78.944,53.945,62.326,,,0.316684,0.523324,0.628284
0.717,23.12,1.936,3.208,3.836,78.793,54.006,62.309,,,0.218768,0.362504,0.433468
0.721,23.233,1.938,3.228,3.839,78.688,54.048,62.302,,,0.139536,0.232416,0.276408
0.725,23.305,1.939,3.248,3.839,78.621,54.074,62.302,,,0.073682,0.123424,0.145882
0.729,23.343,1.943,3.265,3.843,78.585,54.086,62.308,,,0.029145,0.048975,0.057645
0.733,23.358,1.951,3.276,3.851,78.573,54.089,62.316,,,0.01951,0.03276,0.03851
0.738,23.368,1.958,3.283,3.858,78.577,54.086,62.325,,,0.02937,0.049245,0.05787
0.742,23.383,1.961,3.286,3.861,78.589,54.08,62.331,,,0.027454,0.046004,0.054054
0.746,23.397,1.959,3.284,3.859,78.601,54.075,62.333,,,0.015672,0.026272,0.030872
0.75,23.405,1.954,3.276,3.854,78.607,54.074,62.327,,,0.033218,0.055692,0.065518
0.754,23.422,1.945,3.264,3.845,78.6,54.079,62.313,,,0.060295,0.101184,0.119195
0.758,23.453,1.933,3.252,3.833,78.581,54.092,62.292,,,0.085052,0.143088,0.168652
0.763,23.497,1.919,3.24,3.819,78.549,54.111,62.269,,,0.103626,0.17496,0.206226
0.767,23.551,1.905,3.23,3.806,78.508,54.136,62.245,,,0.11811,0.20026,0.235972
0.771,23.613,1.897,3.221,3.797,78.457,54.166,62.225,,,0.13279,0.22547,0.26579
0.775,23.683,1.9,3.224,3.799,78.399,54.202,62.213,,,0.1444,0.245024,0.288724
0.779,23.759,1.919,3.256,3.82,78.334,54.243,62.21,,,0.161196,0.273504,0.32088
0.783,23.843,1.949,3.309,3.856,78.264,54.288,62.221,,,0.179308,0.304428,0.354752
0.788,23.935,1.967,3.335,3.879,78.191,54.336,62.249,,,0.202601,0.343505,0.399537
0.792,24.038,1.955,3.295,3.866,78.116,54.388,62.295,,,0.21896,0.36904,0.432992
0.796,24.15,1.922,3.207,3.831,78.039,54.444,62.357,,,0.234484,0.391254,0.467382
0.8,24.272,1.889,3.105,3.797,77.962,54.501,62.432,,,0.241792,0.39744,0.486016
0.804,24.4,1.868,3.005,3.775,77.887,54.56,62.517,,,0.250312,0.40267,0.50585
0.808,24.534,1.854,2.901,3.762,77.815,54.62,62.612,,,0.252144,0.394536,0.511632
0.813,24.67,1.846,2.789,3.754,77.747,54.681,62.713,,,0.252902,0.382093,0.514298
0.817,24.807,1.836,2.673,3.744,77.684,54.743,62.818,,,0.24786,0.360855,0.50544
0.821,24.942,1.818,2.556,3.726,77.628,54.803,62.924,,,0.238158,0.334836,0.488106
0.825,25.073,1.794,2.441,3.701,77.579,54.863,63.031,,,0.226044,0.307566,0.466326
0.829,25.199,1.774,2.331,3.682,77.537,54.92,63.134,,,0.209332,0.275058,0.434476
0.833,25.317,1.764,2.225,3.674,77.501,54.973,63.234,,,0.190512,0.2403,0.396792
0.838,25.425,1.76,2.127,3.671,77.469,55.019,63.327,,,0.17248,0.208446,0.359758
0.842,25.523,1.757,2.039,3.668,77.441,55.057,63.412,,,0.147588,0.171276,0.308112
0.846,25.607,1.76,1.963,3.671,77.414,55.084,63.487,,,0.1232,0.13741,0.25697
0.85,25.677,1.778,1.902,3.688,77.389,55.099,63.55,,,0.099568,0.106512,0.206528
0.854,25.733,1.807,1.857,3.716,77.363,55.1,63.6,,,0.083122,0.085422,0.170936
0.858,25.779,1.826,1.831,3.736,77.335,55.085,63.634,,,0.085822,0.086057,0.175592
0.863,25.826,1.818,1.823,3.729,77.305,55.055,63.653,,,0.092718,0.092973,0.190179
0.867,25.877,1.787,1.831,3.697,77.27,55.018,63.66,,,0.098285,0.100705,0.203335
0.871,25.932,1.742,1.848,3.651,77.231,54.98,63.66,,,0.094068,0.099792,0.197154
0.875,25.986,1.701,1.868,3.608,77.187,54.949,63.656,,,0.093555,0.10274,0.19844
0.879,26.041,1.683,1.883,3.588,77.135,54.932,63.653,,,0.099297,0.111097,0.211692
0.883,26.1,1.698,1.885,3.603,77.076,54.938,63.654,,,0.130746,0.145145,0.277431
0.888,26.177,1.715,1.862,3.621,77.008,54.973,63.665,,,0.186935,0.202958,0.394689
0.892,26.286,1.702,1.804,3.607,76.93,55.045,63.688,,,0.2553,0.2706,0.54105
0.896,26.436,1.649,1.715,3.553,76.842,55.16,63.728,,,0.316608,0.32928,0.682176
0.9,26.628,1.565,1.603,3.471,76.743,55.315,63.782,,,0.352125,0.360675,0.780975
0.904,26.853,1.462,1.478,3.373,76.633,55.501,63.847,,,0.3655,0.3695,0.84325
0.908,27.103,1.351,1.353,3.266,76.512,55.707,63.917,,,0.356664,0.357192,0.862224
0.913,27.367,1.246,1.242,3.163,76.381,55.926,63.988,,,0.33642,0.33534,0.85401
0.917,27.637,1.162,1.159,3.078,76.24,56.146,64.055,,,0.312578,0.311771,0.827982
0.921,27.906,1.115,1.119,3.029,76.088,56.359,64.114,,,0.28767,0.288702,0.781482
0.925,28.164,1.095,1.123,3.01,75.926,56.556,64.159,,,0.26718,0.274012,0.73444
0.929,28.408,1.062,1.153,2.977,75.754,56.727,64.187,,,0.243198,0.264037,0.681733
0.933,28.637,0.988,1.192,2.902,75.572,56.865,64.194,,,0.21242,0.25628,0.62393
0.938,28.852,0.907,1.227,2.822,75.386,56.974,64.184,,,0.186842,0.252762,0.581332
0.942,29.058,0.872,1.25,2.787,75.2,57.057,64.159,,,0.17004,0.24375,0.543465
0.946,29.253,0.894,1.263,2.81,75.018,57.117,64.124,,,0.163602,0.231129,0.51423
0.95,29.436,0.954,1.278,2.871,74.844,57.158,64.082,,,0.161226,0.215982,0.485199
0.954,29.605,1.031,1.301,2.947,74.683,57.183,64.036,,,0.155681,0.196451,0.444997
0.958,29.756,1.105,1.328,3.019,74.54,57.197,63.991,,,0.142545,0.171312,0.389451
0.963,29.885,1.157,1.355,3.07,74.419,57.203,63.949,,,0.116857,0.136855,0.31007
0.967,29.986,1.184,1.379,3.098,74.323,57.204,63.914,,,0.087616,0.102046,0.229252
0.971,30.06,1.194,1.397,3.108,74.255,57.202,63.888,,,0.0597,0.06985,0.1554
0.975,30.11,1.194,1.408,3.108,74.209,57.198,63.868,,,0.034626,0.040832,0.090132
0.979,30.139,1.191,1.414,3.105,74.183,57.191,63.855,,,0.017865,0.02121,0.046575
0.983,30.154,1.193,1.415,3.107,74.174,57.183,63.847,,,0.013123,0.015565,0.034177
0.988,30.165,1.199,1.41,3.113,74.178,57.173,63.843,,,0.021582,0.02538,0.056034
0.992,30.183,1.206,1.403,3.12,74.192,57.163,63.842,,,0.027738,0.032269,0.07176
0.996,30.206,1.214,1.393,3.128,74.213,57.151,63.843,,,0.032778,0.037611,0.084456
1,30.233,1.222,1.382,3.136,74.237,57.14,63.845,,,,,
,,,,,,,,,,,,
,,,,,,,,,,1.953259551,2.516389541,3.854684054