"T","Distance","Radius","FreeRadius","BRadius","X","Y","Z"
0.000,0.000,1.115,1.316,3.044,-5.924,7.699,5.644
0.004,0.022,1.125,1.313,3.054,-5.912,7.682,5.638
0.008,0.043,1.136,1.309,3.063,-5.902,7.664,5.634
0.013,0.063,1.145,1.304,3.073,-5.896,7.644,5.630
0.017,0.084,1.154,1.299,3.082,-5.897,7.624,5.629
0.021,0.108,1.162,1.297,3.089,-5.905,7.601,5.631
0.025,0.140,1.168,1.304,3.094,-5.924,7.577,5.637
0.029,0.182,1.173,1.318,3.098,-5.955,7.549,5.647
0.034,0.239,1.176,1.343,3.101,-6.000,7.518,5.662
0.038,0.313,1.180,1.378,3.104,-6.061,7.483,5.683
0.042,0.406,1.184,1.427,3.109,-6.141,7.444,5.710
0.046,0.518,1.190,1.490,3.115,-6.238,7.400,5.745
0.050,0.646,1.201,1.566,3.126,-6.350,7.352,5.785
0.055,0.788,1.219,1.654,3.145,-6.473,7.298,5.830
0.059,0.940,1.244,1.750,3.172,-6.604,7.240,5.881
0.063,1.099,1.278,1.849,3.206,-6.739,7.176,5.935
0.067,1.263,1.320,1.951,3.249,-6.876,7.107,5.993
0.071,1.428,1.371,2.057,3.300,-7.011,7.032,6.053
0.076,1.593,1.428,2.167,3.357,-7.140,6.951,6.116
0.080,1.754,1.491,2.273,3.420,-7.260,6.865,6.180
0.084,1.911,1.558,2.368,3.487,-7.369,6.772,6.244
0.088,2.063,1.627,2.453,3.556,-7.466,6.676,6.310
0.092,2.209,1.696,2.534,3.625,-7.551,6.576,6.375
0.097,2.349,1.764,2.608,3.693,-7.623,6.475,6.439
0.101,2.482,1.830,2.665,3.759,-7.684,6.375,6.503
0.105,2.608,1.891,2.694,3.820,-7.733,6.277,6.565
0.109,2.726,1.947,2.703,3.876,-7.769,6.183,6.626
0.113,2.835,1.997,2.701,3.925,-7.794,6.094,6.684
0.118,2.934,2.037,2.693,3.966,-7.807,6.013,6.740
0.122,3.024,2.069,2.679,3.997,-7.807,5.940,6.793
0.126,3.105,2.091,2.658,4.018,-7.798,5.877,6.843
0.130,3.181,2.106,2.633,4.032,-7.780,5.820,6.889
0.134,3.252,2.118,2.604,4.043,-7.757,5.767,6.931
0.139,3.320,2.130,2.573,4.055,-7.731,5.717,6.969
0.143,3.386,2.144,2.543,4.069,-7.705,5.666,7.003
0.147,3.451,2.164,2.514,4.090,-7.682,5.613,7.031
0.151,3.515,2.194,2.489,4.120,-7.665,5.555,7.055
0.155,3.583,2.238,2.470,4.163,-7.656,5.490,7.073
0.160,3.659,2.295,2.459,4.219,-7.658,5.416,7.086
0.164,3.745,2.364,2.459,4.288,-7.672,5.331,7.092
0.168,3.844,2.434,2.469,4.359,-7.698,5.236,7.094
0.172,3.953,2.490,2.487,4.414,-7.733,5.133,7.090
0.176,4.070,2.523,2.513,4.444,-7.775,5.024,7.081
0.181,4.193,2.543,2.545,4.461,-7.820,4.910,7.069
0.185,4.320,2.564,2.580,4.482,-7.866,4.793,7.053
0.189,4.447,2.594,2.617,4.511,-7.911,4.676,7.034
0.193,4.572,2.632,2.653,4.549,-7.952,4.560,7.013
0.197,4.692,2.674,2.685,4.592,-7.987,4.447,6.990
0.202,4.806,2.711,2.712,4.629,-8.013,4.338,6.965
0.206,4.913,2.734,2.732,4.652,-8.029,4.236,6.940
0.210,5.011,2.744,2.744,4.663,-8.037,4.142,6.913
0.214,5.100,2.748,2.748,4.664,-8.037,4.057,6.885
0.218,5.181,2.746,2.745,4.659,-8.030,3.982,6.857
0.223,5.251,2.737,2.738,4.648,-8.019,3.919,6.827
0.227,5.311,2.723,2.728,4.633,-8.003,3.870,6.797
0.231,5.362,2.706,2.715,4.616,-7.985,3.834,6.766
0.235,5.404,2.688,2.695,4.599,-7.966,3.814,6.735
0.239,5.441,2.668,2.672,4.579,-7.946,3.811,6.703
0.244,5.481,2.637,2.650,4.547,-7.928,3.825,6.671
0.248,5.526,2.593,2.631,4.503,-7.916,3.852,6.636
0.252,5.576,2.546,2.617,4.456,-7.915,3.886,6.599
0.256,5.631,2.503,2.612,4.416,-7.930,3.919,6.558
0.261,5.696,2.470,2.638,4.385,-7.966,3.945,6.512
0.265,5.779,2.451,2.724,4.367,-8.029,3.959,6.458
0.269,5.893,2.451,2.840,4.367,-8.124,3.952,6.397
0.273,6.046,2.473,2.899,4.389,-8.256,3.920,6.326
0.277,6.249,2.510,2.845,4.425,-8.430,3.855,6.244
0.282,6.511,2.510,2.724,4.425,-8.652,3.751,6.151
0.286,6.831,2.421,2.598,4.338,-8.918,3.608,6.046
0.290,7.197,2.275,2.493,4.191,-9.219,3.433,5.934
0.294,7.591,2.148,2.411,4.063,-9.540,3.235,5.818
0.298,8.000,2.090,2.359,4.000,-9.869,3.021,5.701
0.303,8.407,2.091,2.347,3.998,-10.192,2.802,5.588
0.307,8.797,2.136,2.381,4.044,-10.498,2.585,5.482
0.311,9.155,2.215,2.441,4.124,-10.774,2.378,5.386
0.315,9.464,2.315,2.494,4.225,-11.006,2.190,5.306
0.319,9.710,2.408,2.522,4.317,-11.181,2.030,5.243
0.324,9.881,2.449,2.519,4.358,-11.291,1.904,5.202
0.328,9.988,2.416,2.486,4.323,-11.341,1.813,5.179
0.332,10.048,2.353,2.440,4.259,-11.345,1.754,5.171
0.336,10.089,2.316,2.401,4.221,-11.319,1.723,5.173
0.340,10.134,2.312,2.378,4.216,-11.274,1.718,5.179
0.345,10.186,2.312,2.375,4.216,-11.226,1.734,5.187
0.349,10.238,2.305,2.393,4.210,-11.188,1.770,5.190
0.353,10.292,2.311,2.436,4.217,-11.174,1.822,5.185
0.357,10.363,2.344,2.502,4.251,-11.199,1.887,5.167
0.361,10.476,2.377,2.560,4.286,-11.275,1.961,5.132
0.366,10.641,2.369,2.570,4.278,-11.408,2.043,5.078
0.370,10.852,2.317,2.529,4.224,-11.587,2.130,5.008
0.374,11.099,2.258,2.475,4.165,-11.801,2.220,4.925
0.378,11.370,2.228,2.440,4.136,-12.039,2.311,4.833
0.382,11.653,2.234,2.427,4.143,-12.289,2.401,4.735
0.387,11.937,2.278,2.435,4.187,-12.540,2.489,4.635
0.391,12.209,2.330,2.462,4.237,-12.780,2.571,4.536
0.395,12.459,2.338,2.505,4.247,-12.999,2.646,4.441
0.399,12.674,2.285,2.561,4.198,-13.183,2.712,4.354
0.403,12.844,2.217,2.623,4.133,-13.325,2.768,4.277
0.408,12.971,2.180,2.681,4.097,-13.425,2.812,4.212
0.412,13.062,2.174,2.734,4.091,-13.489,2.847,4.158
0.416,13.124,2.182,2.779,4.098,-13.524,2.872,4.114
0.420,13.165,2.194,2.815,4.110,-13.538,2.888,4.079
0.424,13.192,2.210,2.842,4.126,-13.536,2.896,4.052
0.429,13.214,2.228,2.859,4.144,-13.524,2.897,4.034
0.433,13.232,2.246,2.867,4.162,-13.511,2.891,4.024
0.437,13.248,2.258,2.865,4.175,-13.501,2.878,4.020
0.441,13.266,2.264,2.853,4.181,-13.502,2.861,4.022
0.445,13.293,2.263,2.834,4.179,-13.518,2.839,4.029
0.450,13.333,2.254,2.809,4.170,-13.547,2.814,4.038
0.454,13.384,2.242,2.782,4.158,-13.588,2.786,4.046
0.458,13.444,2.230,2.757,4.147,-13.641,2.756,4.051
0.462,13.513,2.220,2.736,4.137,-13.703,2.727,4.050
0.466,13.589,2.210,2.722,4.129,-13.772,2.698,4.039
0.471,13.673,2.207,2.720,4.126,-13.849,2.670,4.017
0.475,13.766,2.221,2.738,4.140,-13.931,2.646,3.980
0.479,13.870,2.257,2.779,4.175,-14.017,2.625,3.926
0.483,13.986,2.291,2.815,4.210,-14.105,2.609,3.852
0.487,14.117,2.297,2.814,4.216,-14.195,2.595,3.759
0.492,14.260,2.270,2.782,4.190,-14.287,2.582,3.649
0.496,14.416,2.225,2.750,4.145,-14.379,2.565,3.525
0.500,14.583,2.179,2.740,4.097,-14.472,2.542,3.388
0.504,14.759,2.147,2.751,4.062,-14.564,2.510,3.242
0.508,14.943,2.142,2.777,4.056,-14.656,2.467,3.088
0.513,15.136,2.153,2.826,4.067,-14.747,2.408,2.928
0.517,15.336,2.159,2.906,4.074,-14.836,2.332,2.766
0.521,15.545,2.148,3.012,4.063,-14.923,2.234,2.603
0.525,15.763,2.118,3.123,4.033,-15.007,2.116,2.441
0.529,15.989,2.072,3.221,3.987,-15.090,1.979,2.282
0.534,16.220,2.027,3.321,3.942,-15.171,1.828,2.126
0.538,16.456,2.004,3.446,3.917,-15.252,1.667,1.975
0.542,16.691,2.008,3.576,3.918,-15.333,1.500,1.829
0.546,16.924,2.033,3.661,3.940,-15.413,1.331,1.690
0.550,17.152,2.069,3.679,3.976,-15.495,1.164,1.559
0.555,17.370,2.107,3.674,4.014,-15.578,1.003,1.438
0.559,17.576,2.137,3.692,4.044,-15.663,0.852,1.326
0.563,17.767,2.163,3.713,4.069,-15.751,0.715,1.225
0.567,17.943,2.191,3.688,4.099,-15.840,0.592,1.136
0.571,18.104,2.224,3.607,4.135,-15.929,0.484,1.057
0.576,18.251,2.257,3.512,4.171,-16.017,0.388,0.989
0.580,18.383,2.285,3.441,4.200,-16.102,0.305,0.932
0.584,18.501,2.311,3.391,4.226,-16.183,0.234,0.884
0.588,18.604,2.340,3.348,4.253,-16.257,0.173,0.846
0.592,18.693,2.368,3.309,4.282,-16.325,0.123,0.818
0.597,18.767,2.390,3.274,4.304,-16.384,0.082,0.798
0.601,18.826,2.399,3.246,4.317,-16.432,0.050,0.788
0.605,18.871,2.398,3.223,4.320,-16.470,0.025,0.785
0.609,18.904,2.392,3.204,4.314,-16.497,0.008,0.788
0.613,18.926,2.383,3.190,4.305,-16.515,-0.004,0.794
0.618,18.939,2.374,3.181,4.296,-16.525,-0.010,0.799
0.622,18.943,2.370,3.178,4.292,-16.528,-0.011,0.803
0.626,18.947,2.374,3.181,4.296,-16.524,-0.009,0.801
0.630,18.961,2.387,3.189,4.309,-16.516,-0.005,0.792
0.634,18.985,2.403,3.205,4.325,-16.503,0.001,0.773
0.639,19.021,2.413,3.229,4.335,-16.488,0.008,0.740
0.643,19.072,2.414,3.260,4.337,-16.470,0.015,0.693
0.647,19.137,2.407,3.297,4.329,-16.451,0.023,0.632
0.651,19.213,2.393,3.341,4.312,-16.432,0.033,0.559
0.655,19.297,2.377,3.398,4.294,-16.412,0.047,0.478
0.660,19.387,2.366,3.472,4.281,-16.393,0.065,0.392
0.664,19.480,2.363,3.548,4.278,-16.376,0.090,0.304
0.668,19.575,2.375,3.594,4.291,-16.360,0.123,0.216
0.672,19.670,2.397,3.593,4.314,-16.347,0.165,0.132
0.676,19.764,2.414,3.549,4.330,-16.337,0.218,0.055
0.681,19.858,2.411,3.467,4.324,-16.331,0.283,-0.012
0.685,19.953,2.387,3.367,4.296,-16.329,0.359,-0.069
0.689,20.047,2.347,3.268,4.255,-16.330,0.441,-0.116
0.693,20.137,2.299,3.180,4.206,-16.333,0.520,-0.159
0.697,20.217,2.252,3.105,4.160,-16.338,0.589,-0.199
0.702,20.284,2.217,3.040,4.127,-16.342,0.641,-0.241
0.706,20.338,2.216,2.988,4.128,-16.345,0.668,-0.287
0.710,20.392,2.268,2.949,4.180,-16.347,0.664,-0.341
0.714,20.470,2.341,2.937,4.254,-16.345,0.621,-0.406
0.718,20.589,2.381,2.969,4.293,-16.339,0.531,-0.485
0.723,20.762,2.359,3.040,4.269,-16.329,0.389,-0.581
0.727,20.984,2.290,3.112,4.198,-16.313,0.197,-0.692
0.731,21.247,2.194,3.150,4.102,-16.293,-0.034,-0.816
0.735,21.537,2.096,3.158,4.004,-16.271,-0.292,-0.947
0.739,21.845,2.019,3.154,3.927,-16.246,-0.567,-1.083
0.744,22.157,1.974,3.153,3.883,-16.220,-0.848,-1.218
0.748,22.464,1.960,3.160,3.868,-16.193,-1.124,-1.348
0.752,22.753,1.971,3.182,3.880,-16.167,-1.384,-1.470
0.756,23.012,1.998,3.211,3.907,-16.142,-1.618,-1.580
0.761,23.230,2.029,3.241,3.938,-16.120,-1.814,-1.673
0.765,23.400,2.051,3.268,3.960,-16.100,-1.965,-1.747
0.769,23.524,2.048,3.289,3.957,-16.084,-2.074,-1.803
0.773,23.607,2.019,3.303,3.927,-16.073,-2.146,-1.843
0.777,23.654,1.985,3.309,3.892,-16.066,-2.186,-1.868
0.782,23.670,1.967,3.307,3.874,-16.065,-2.197,-1.880
0.786,23.683,1.970,3.298,3.877,-16.069,-2.185,-1.881
0.790,23.717,1.994,3.284,3.903,-16.081,-2.154,-1.873
0.794,23.769,2.027,3.267,3.938,-16.099,-2.109,-1.856
0.798,23.833,2.041,3.248,3.956,-16.125,-2.054,-1.834
0.803,23.906,2.022,3.230,3.937,-16.159,-1.995,-1.808
0.807,23.983,1.981,3.213,3.896,-16.198,-1.935,-1.780
0.811,24.056,1.937,3.200,3.852,-16.239,-1.880,-1.753
0.815,24.118,1.897,3.190,3.812,-16.274,-1.835,-1.730
0.819,24.162,1.862,3.183,3.777,-16.301,-1.805,-1.714
0.824,24.180,1.841,3.181,3.755,-16.313,-1.794,-1.707
0.828,24.196,1.856,3.185,3.771,-16.306,-1.808,-1.713
0.832,24.253,1.922,3.196,3.837,-16.275,-1.851,-1.735
0.836,24.359,1.997,3.214,3.912,-16.216,-1.928,-1.774
0.840,24.521,2.018,3.238,3.932,-16.122,-2.045,-1.835
0.845,24.742,1.975,3.280,3.885,-15.992,-2.204,-1.919
0.849,25.011,1.908,3.365,3.815,-15.834,-2.396,-2.020
0.853,25.314,1.854,3.497,3.760,-15.656,-2.613,-2.135
0.857,25.639,1.821,3.609,3.728,-15.467,-2.847,-2.258
0.861,25.971,1.813,3.628,3.720,-15.276,-3.087,-2.384
0.866,26.296,1.834,3.554,3.741,-15.092,-3.325,-2.508
0.870,26.601,1.890,3.440,3.798,-14.925,-3.553,-2.625
0.874,26.874,1.966,3.328,3.874,-14.782,-3.760,-2.729
0.878,27.099,2.001,3.234,3.910,-14.674,-3.937,-2.816
0.882,27.267,1.950,3.169,3.858,-14.608,-4.077,-2.880
0.887,27.379,1.853,3.128,3.760,-14.583,-4.178,-2.921
0.891,27.451,1.788,3.100,3.696,-14.591,-4.247,-2.941
0.895,27.503,1.784,3.078,3.695,-14.621,-4.290,-2.942
0.899,27.555,1.816,3.060,3.729,-14.666,-4.312,-2.927
0.903,27.613,1.860,3.041,3.772,-14.714,-4.322,-2.898
0.908,27.673,1.908,3.019,3.817,-14.757,-4.324,-2.856
0.912,27.731,1.954,2.987,3.863,-14.787,-4.325,-2.806
0.916,27.790,1.987,2.942,3.896,-14.792,-4.331,-2.748
0.920,27.861,1.987,2.878,3.896,-14.764,-4.350,-2.685
0.924,27.961,1.947,2.794,3.857,-14.697,-4.384,-2.619
0.929,28.092,1.883,2.694,3.792,-14.595,-4.433,-2.553
0.933,28.250,1.809,2.584,3.718,-14.464,-4.492,-2.486
0.937,28.427,1.736,2.470,3.643,-14.314,-4.558,-2.420
0.941,28.617,1.668,2.358,3.574,-14.149,-4.627,-2.357
0.945,28.812,1.611,2.255,3.517,-13.977,-4.697,-2.298
0.950,29.004,1.573,2.168,3.479,-13.805,-4.763,-2.244
0.954,29.185,1.554,2.102,3.461,-13.639,-4.821,-2.196
0.958,29.349,1.547,2.048,3.453,-13.488,-4.869,-2.156
0.962,29.488,1.536,1.995,3.442,-13.357,-4.903,-2.124
0.966,29.600,1.522,1.938,3.425,-13.249,-4.922,-2.102
0.971,29.689,1.510,1.876,3.412,-13.162,-4.928,-2.087
0.975,29.759,1.504,1.812,3.406,-13.092,-4.921,-2.079
0.979,29.817,1.503,1.756,3.405,-13.037,-4.905,-2.077
0.983,29.865,1.503,1.718,3.405,-12.995,-4.880,-2.080
0.987,29.911,1.504,1.695,3.406,-12.963,-4.849,-2.088
0.992,29.956,1.505,1.683,3.407,-12.939,-4.813,-2.098
0.996,30.001,1.508,1.676,3.410,-12.920,-4.773,-2.110
1.000,30.048,1.512,1.672,3.414,-12.903,-4.731,-2.123
